ecg
-0.007661808088354584
-0.046363250565349
0.17420853795202432
0.20276387374483826
0.20857817546475851
0.2992527896141726
0.3504622189316621
0.4660495106154117
0.4956758372354188
0.5646580791797001
0.5315022017361899
0.43033556756727204
0.4149233930713736
0.5183253103585465
0.5060055684834905
0.3719205548484243
0.3591388263940697
0.19579767450480268
0.1075133655678131
0.07501068899653009
0.04180797044122492
-0.04180566212969495
-0.10228813393713018
-0.18831004507413954
-0.1990395102585315
-0.22556289657739195
-0.3522995526105046
-0.301709501148559
-0.4748414689591765
-0.49919068189090904
-0.47258608884641673
-0.5175392901900273
-0.43738414347941745
-0.5134216075627087
-0.38939189531436325
-0.4095979564676364
-0.24525927283162088
-0.3424510420131681
-0.2678186078727386
-0.18296799193502988
-0.22753333603103432
-0.01390014130446604
0.055500398714701304
0.11167865394504661
0.10132727767275118
0.16948472296054085
0.3387851885808246
0.4238030277879402
0.4920387513218984
0.40541927268824385
1.4262685879562824
0.48094067839656535
0.4012110156079612
0.46461722650087
0.519461102486658
0.5305429183644335
0.4244844636588986
0.4449134366701645
0.32751924289906764
0.2536384589396444
0.16703114517014295
0.1124814583731988
0.015573191117633403
-0.054193710978626464
-0.1546323928319474
-0.18020630367743928
-0.2596540101025742
-0.3956406637429099
-0.3876520864782827
-0.46379669553853453
-0.559225420418785
-0.4580138530604053
-0.41867799522256804
-0.381213767148738
-0.4132803005258591
-0.5154445993678174
-0.3828920414668504
-0.34534495891211503
-0.45127151207132027
-0.25133730631012885
-0.1988559279357813
-0.15264141938690917
-0.0732542489872676
-0.009674853722865626
0.14438832988205696
0.11665300041635154
0.1975803728805352
0.27405154498459855
0.3473335504259951
0.297655363538829
1.4986922666404805
0.47429680371304334
0.5145860212959454
0.5080609344936001
0.48958584474911976
0.4704897938010395
0.4712755488913238
0.4416607979537176
0.4495185520071522
0.35782854784726703
0.2748617301705806
0.3154594461466123
0.08182984264252517
0.005138222919229274
0.014582234970524145
-0.08899134955174032
-0.240541392888799
-0.23740259379702472
-0.32224937456761743
-0.28855210683421123
-0.4266989511887712
-0.38461793343257744
-0.4457104041647413
-0.49988641705201625
-0.4982256395974158
-0.47618826596282515
-0.600020608964314
-0.444219545232458
-0.44498796976754607
-0.29188688473208735
-0.3633973275248067
-0.21126344237478345
-0.32757968164534434
-0.08994475289608991
-0.04273565328203059
0.006532014558097904
0.08783171291997238
0.1537022945698623
0.2569352802594368
0.2927545582522418
0.2669378948542217
0.39577231723310585
0.5563066988148351
0.4762900673020618
0.5070642641230261
0.4779758918179593
0.5045441587206886
0.48940259621977317
0.44115964012527176
0.46074683866887955
0.3252780589268928
0.31030651721714114
0.2802338680022893
0.173985516963986
0.05422739551004889
0.06879008838729292
-0.08370714863026874
-0.1316520635828945
-0.2228912313874446
-0.2550819245994698
-0.3333899622249541
-0.39091745679749196
-0.3800390593023056
-0.36342161531633915
-0.4966021300385257
-0.4688590909265898
-0.5177483789867723
-0.48862325687783165
-0.41952828302443673
-0.4449017863078478
-0.44949895787060457
-0.39720936210427865
-0.33532208310846295
-0.24198328833801092
-0.1297518094141885
0.8320077694383801
-0.07703692003026472
0.004054019661200579
0.03711857605216412
0.26235369277222176
0.26123969657529544
0.4191042436807676
0.30647063894333476
0.4874119726576572
0.42300366714189014
0.46266225687004975
0.44752015270975476
0.4520882016824491
0.42462298394313464
0.4816714744355616
0.3744597914262735
0.38736444161343286
0.34917662068775085
0.3251820851800696
0.23243545307619218
0.17386425918116682
0.11030484126072698
0.008580560563283646
-0.04774584340073606
-0.18875360094868343
-0.24921052565825272
-0.18143556469945024
-0.33647550624418876
-0.4233374886174249
-0.3619048830737214
-0.4720083683773038
-0.5191810088849016
-0.5709020636065398
-0.4597154871526772
-0.5418788715758879
-0.4922788908267658
-0.4002821012954155
-0.3806100058704851
-0.3425352745591806
-0.2896285513380545
-0.1559919565745944
-0.03127349333219359
-0.0964703700855499
0.03474081502436277
0.17792010432243255
0.20876070127455243
0.19026635890925636
0.26775577036094933
0.3174810747369479
0.35188115713677004
0.40747269050036977
0.48288024219877546
0.4608483276641565
0.543252704098643
0.5034674181844496
0.46397801685458573
0.5036431290189951
0.4403244248206972
0.3929859950335802
0.37845797123356956
0.29439367233032354
0.19350452401685403
0.17451269704799055
0.06887788425626859
0.12383735125114335
-0.04203178013204751
-0.11203408505830942
-0.17400665773486002
-0.29798987838521934
-0.29288124069557664
-0.4057324379000959
-0.48756103928119626
-0.503140539131456
-0.46665986185073866
-0.577994063301653
-0.48500881497823745
-0.5160428784796285
-0.41698405473808686
-0.45315276406624677
-0.27570211625310426
-0.2759837945302036
-0.31571128964042167
-0.09647547619326848
-0.12371886894901005
-0.07411254249889768
0.9865487711965962
0.14074448046377058
0.2596395370306891
0.22334699305514813
0.26449365888784293
0.31233227496522803
0.49066434410138926
0.5364313349517251
0.46220181720129355
0.5223117154229937
0.4997927962549416
0.49002587445340373
0.5231423478218207
0.4680501691559506
0.4233747876166534
0.3438970645040687
0.3427618769335815
0.22445603119573773
0.17219084053043976
0.10794007987318024
-0.038029695870155436
-0.06836674248409128
-0.14326510558785538
-0.1938892930338356
-0.3213213044428434
-0.3857836335540949
-0.2985695085796364
-0.3665536532149893
-0.41488666517353984
-0.3925933616678931
-0.4763248831283318
-0.5039966477124843
-0.466090990500224
-0.5637508178242674
-0.49357210540485685
-0.3596214744684393
-0.34574872770412707
-0.35317161846870976
-0.19168109662019212
-0.1048627660773533
-0.04808611098651136
-0.00781044947117082
0.02722985462530466
0.14816694763070187
0.23463454072259335
0.2609997223767101
0.36836572637342013
0.4055132812710137
0.44914282821613655
0.36370027238468333
0.5416184758663971
0.584909666452882
0.47832910495195696
0.413011508486429
0.496112703822557
0.4076158915055778
0.33946183633366867
0.39677460831913225
0.2071421374321108
0.24630843502491082
0.07738088533114483
0.139026638468228
0.016384519475850522
-0.09745401305774742
-0.1503294696022917
-0.1983114975820432
-0.25035683203820724
-0.30824712648530567
-0.3721180215837543
-0.46403892616424613
-0.43765084917816754
-0.5563764736050367
-0.4493767394267573
-0.45331808369855525
-0.4133266890037488
-0.4875250741085149
-0.4133922720712209
-0.3347730226582754
-0.3081723837394673
-0.2843919929654241
-0.18069100524544776
-0.12118724540520948
-0.0004958831694809596
-0.006250666075225512
0.1170267787849697
0.18729893830276642
0.27918448348748637
0.30084014959480965
0.3670787632684989
0.40517410656532143
0.44911974138689215
0.47633380840982137
0.47723314161036784
0.6413426941651477
0.45279627523460597
0.42005592402097125
0.4117707297477174
0.37858537821835736
0.3677597920012934
0.3834673034564378
0.333964693047168
0.19335007012619362
-0.015623980217757835
1.053817068382575
-0.10640960574017752
-0.14045645679818333
-0.24482186533813916
-0.23370005140712674
-0.348146649857075
-0.33282597290907334
-0.3937185489024128
-0.4662232144357355
-0.4764772997915873
-0.4499704470924901
-0.5184852129861468
-0.4467439225249297
-0.47491355739352675
-0.4311007392932975
-0.36510081651535026
-0.2897481540961697
-0.27342637653987334
-0.23286652558212292
-0.13069602736287617
-0.17114856031528208
0.06306524105531187
-0.009733772306558176
0.17586147530619728
0.1736252538977833
0.2937542176020119
0.32300550848385884
0.39696234100492966
0.38599263724916405
0.35254156539594306
0.5049514657503247
0.46759598601330504
0.4668524426467444
0.4533037146106705
0.5679200516195083
0.40803904396962604
0.41197701162321265
0.2870863771619898
0.36287142172998166
0.19397771229732366
0.021779503021903956
0.21397017897196852
-0.05175956399273955
-0.0067020650003278
-0.10914752243107503
-0.18352220880873957
-0.29311040515742165
-0.3310657229417748
0.6694413362096023
-0.4491047167170136
-0.4539043601700327
-0.44183735872963387
-0.49473846645151853
-0.5194442946611342
-0.4135458460888114
-0.4459023859272431
-0.4355522093923848
-0.424612594786986
-0.38383020776629134
-0.22899289053023703
-0.16011393822992825
-0.24527799506180592
-0.0935661194205983
0.060834629703547874
0.20890041573433216
0.26829952228189047
0.2773080884674626
0.36306835483600786
0.32550906265323626
0.44006663526636747
0.37979605605568223
0.4438107044239694
0.5074498311639455
0.608097130104491
0.5340105744155792
0.4958993900608015
0.4483112193474566
0.3548909773516974
0.40576021150505215
0.30420697718294587
0.27232866613498474
0.1486913530683142
0.12760054877014498
-0.029703269987855434
-0.003120527520336827
-0.03714831048600219
-0.12990566380006158
-0.1383790752267226
-0.2907479202026621
-0.3376175821667735
-0.3847834490843683
-0.49279928337657253
-0.369209947147743
-0.4446348810826262
-0.5121388437753622
-0.5396792055059824
-0.44873302518214797
-0.4073139712062227
-0.40542127633530034
-0.35574036755440636
-0.31886010432233397
-0.2469501447453771
-0.11179000035615422
-0.036181841459541786
-0.1064669372261857
0.05095734140819647
0.05827687019344511
0.12346581021442292
0.28698155181333845
0.2771668298319299
0.21586403935790793
0.45156433993875383
0.5196336860742575
0.5833050737817413
0.4764220916761167
0.5720716174901385
0.36092224019316466
0.4207655318487788
0.46906970201455045
0.42678608892495035
0.42013032138512335
0.34477471862536474
0.2289260665234337
0.24022171660925504
0.12510656277114968
0.10159127951211157
-0.09988119635753938
-0.11869918900765739
-0.22618923717941194
0.7692534266731527
-0.3421762853395198
-0.3964005696181933
-0.49399574081752295
-0.4463788359402694
-0.429609388190242
-0.44750825628764224
-0.6499075603810094
-0.5699028447466206
-0.3673369061319198
-0.44499337395389
-0.4011507774621643
-0.2845571208369656
-0.274299741111925
-0.2505949973153203
-0.1593016685476063
0.019595859302287563
-0.06906955765609497
