ecg
-0.07257096885686934
0.02185177600250308
0.09039426348542069
0.11207467031196966
0.14856091796367196
0.23718973054496242
0.26468336959156025
0.2555335496110589
0.23367020406992778
0.25020973915033384
0.41813415962325556
0.2893281806653879
0.43277304533276456
0.359815088068954
0.42459047317099685
0.48302081780846295
0.43193205241573857
0.5162960903012813
0.46807462318589377
0.49444379060897764
0.44625518745121434
0.45582397680010345
0.5258637578120827
0.5375121992408444
0.539662687670186
0.46223687657166146
0.428934379724748
0.4418398625820552
0.5049787219677665
0.3701725651842543
0.4280346793006858
0.34891985677159226
0.35149485251127277
0.3807797624916926
0.24385130227074228
0.26324338430046446
0.22533227556075686
0.17655700462571267
0.08710594750206821
0.08414163450689273
0.041032663008110995
0.030135577862143707
-0.06095063132961134
-0.15501700784432887
-0.0025061524092668958
-0.11782347066975465
-0.08385282088516163
-0.194854296769104
-0.19783934015303944
-0.187813615247434
0.6616065302114038
-0.3797034601932484
-0.3464360023645144
-0.3511840817283039
-0.46526135096773236
-0.40560392010829466
-0.4483547773852532
-0.3592855240780649
-0.3765706251160863
-0.46028290134815353
-0.49838074278857686
-0.5774122680032887
-0.4872573989317153
-0.5117211262791469
-0.579729659925559
-0.5932150205855131
-0.551983843866305
-0.43955460051558837
-0.40312514156106355
-0.43275907463317026
-0.2779529750082449
-0.37729669790267034
-0.34340876634022327
-0.28736695528215905
-0.3442130082369743
-0.2791304385611499
-0.27200452809135345
-0.18406170458342314
-0.2128519555552582
-0.07758981510330114
-0.10695978410608376
-0.09609421563859245
-0.03761852260558739
0.07501909991163815
0.07676729835512397
0.09295323848614193
-0.01950487732130421
0.14030503078171616
0.1266984150821034
0.22957409539798926
0.20932059174405396
0.27620807600205693
0.24573002551721865
0.30367881493529814
0.3701953430282949
0.38550643351080116
0.359344410318653
0.3963476760284229
0.3806133228406254
0.4784357367453301
0.45928174886836504
0.4331856615822928
0.49467882752246417
0.5211463262018755
0.5126085906574532
0.6279976474537123
0.5376878347427332
0.42306863552785007
0.5947373638237089
0.4797283590283786
0.47331124063618957
0.3594719018023569
0.3674822318770295
0.36985768500052285
0.41566556188689713
0.29364315206087965
0.2514983023466169
0.2441739519794058
0.2201463743629376
0.27265889820685546
0.20508296563189432
0.20655045589261503
0.06101968493775135
0.06509263616348228
-0.023217272284599227
0.030037101922720875
0.0018212909631926191
-0.12768511465383775
-0.08421109490102167
-0.2260633156135738
-0.19351129365029304
-0.27909243857641264
-0.2712425171738542
-0.27329601866456493
-0.2683316903949311
-0.2918375231149415
-0.3832366972700411
-0.3679637626963122
-0.4674101043090384
-0.48278127687879857
-0.4032620970267075
-0.5000866493092696
-0.547701943173664
-0.4078721538162172
-0.4679161173474811
-0.5558383362787932
-0.49609905203119076
-0.530804712639808
-0.44227720744598537
-0.5659051222097552
-0.43100661777125693
-0.444807499574833
-0.4284441436515109
-0.3829540244344929
-0.3577960614856804
-0.36108680752670624
-0.3372826034469111
-0.2576642116574178
-0.30610981324307496
-0.18664571755645493
-0.1786528412797596
-0.24585111959319406
-0.21074820189051166
-0.13929000048629273
-0.04811705723119453
0.0020506515965633826
-0.046048121166829666
0.02108384868218991
0.07434345325938234
0.12828897175889867
1.1356673341179246
0.0981025626454779
0.18482885838363586
0.25183613911459407
0.28315869106130775
0.32631558140938655
0.33791151174820006
0.36487973771865756
0.4075644495123395
0.48451357533519296
0.3291632963258745
0.49596096289452685
0.49537132728768174
0.4651505587884721
0.6160831536212718
0.6036843803224885
0.33750369479579945
0.4479476154655705
0.48986505294555754
0.5172089154667435
0.49012973465014154
0.4626780517562453
0.4336898620800836
0.49855200706485336
0.41429124469769296
0.36839432678700673
0.39341145775542413
0.3732456573808448
0.37612001515432314
0.28586706394123934
0.2708739370049962
0.28249315636181777
0.28300929075115844
0.12056582095604466
0.11251306541806202
0.1578150886818679
0.11056371949568049
-0.002519333908159331
-0.0200558019690173
-0.06294714752407501
-0.1169669473700278
-0.2743737265539514
-0.16502288220154795
-0.1137879489570881
-0.22549441743596013
-0.319803178428658
-0.2955965105387788
-0.325712173902806
-0.4089763437155738
-0.3922254984501907
-0.4680749344000512
-0.4039499148530125
-0.5200836629682488
-0.5226128551277438
-0.480145789810434
-0.5433141343623513
-0.5757050437368082
-0.43892964698936365
-0.4664637408461803
-0.48459573127980077
-0.3954669891108305
-0.4281839733268169
-0.4633536538897151
-0.4639554174021595
-0.45875081207031615
-0.46833323715841874
-0.4341686593860153
-0.43652856193084544
-0.30081460616670064
-0.3763622888478301
-0.40358705729728783
-0.35436677916997233
-0.2932439231028971
-0.2815319460303408
-0.25598669278319097
-0.24011502958839748
-0.2152396122520692
-0.11002865669807459
-0.0975002504788309
0.010658651960337807
-0.07674178704269866
0.06728516201876587
0.06147185164480853
0.10376134624417563
0.2080553480485929
0.17777889785387418
0.12283516856855944
0.21258567538093492
0.281835005975807
0.3029048594234817
0.3987978011567942
0.3658717734368022
0.46976912789058034
0.4138443539454353
0.5043627973394301
0.4795893245172548
0.40277815831174807
0.5267586143527988
0.5254592438312277
0.47106673769992957
0.5386277827781987
0.48745222886230044
0.5350579725705232
0.49929408867402486
0.5044487970346907
0.4207060837197826
0.39234591667585
0.4516734249864243
0.4161211277842411
0.3644497386497745
0.3421789820808572
0.3505005395552534
0.3303305004691278
0.28209962095924696
0.2994768262192668
0.19882920405911664
0.19269317482177495
0.05343054377848257
0.1387589746038395
0.0709849570248345
0.9813535024624314
0.04881362821956914
-0.06270601833559378
-0.0557915428981106
-0.09391069933761871
-0.11806526507428208
-0.1772515657696568
-0.26325745583953675
-0.27939746545109145
-0.25351073447610467
-0.25915511967139987
-0.3697127820559929
-0.39742505888347274
-0.31710943526148966
-0.3833373987409051
-0.40992365272272785
-0.48623404878766985
-0.4807854100623684
-0.5081756522916416
-0.5279410072217214
-0.5383178516098236
-0.521099431372352
-0.46420125528768663
-0.43664443596876373
-0.5027813725879635
-0.5024766190769392
-0.44295048564548317
-0.4361614416276759
-0.46605729223391174
-0.4033021208883872
-0.3424184112052514
-0.47317143871664324
-0.35403925839050954
-0.36403799487404576
-0.23089298534856662
-0.24480346598931232
-0.24403210705344638
-0.22439052376496257
-0.2123531475012681
-0.19907360184820067
-0.00773883095277135
-0.1419872056930386
-0.011419230987564841
0.040144403651867035
0.059839219211120676
0.09571812596654385
0.17490959229117778
0.225012538701823
0.12811016563624536
0.18056487220670567
0.27527282460433894
0.2830882785947001
0.3688990236051065
0.3499713227311096
0.3360453377986385
0.4303902286512389
0.486763842547578
0.4123705060956062
0.4541789620360307
0.46728873147475325
0.5362940429591736
0.4414754661395063
0.5270292809471093
0.5165658161675207
0.5037238820406194
0.45078673012770504
0.507262850653154
0.4540231821295201
0.41775866368565956
0.4991267284446486
0.5048458157607022
0.425644437473804
0.3692456884373798
0.4501934327337907
0.3349168994996065
0.3465764940387409
0.19944075164251066
0.2235406813380531
0.21803171870483967
0.20711654704942722
0.23062662780708187
0.14221695555834815
0.13442674067151636
0.013926092875057985
0.06210299331450893
-0.03797650086863476
-0.08196149069168715
-0.08495705916054609
-0.26296299336603024
-0.13079010168867553
-0.2520235961718612
-0.14030719834331024
-0.2982321817942203
-0.4145452833960944
-0.32357634839315463
-0.2993904083397275
-0.4265768835741663
-0.3670583541928001
-0.48925641066976855
-0.4693113810513597
-0.47508045316581315
-0.5328514739880584
-0.4958601716932468
-0.4850659888245945
-0.6444437440386057
-0.5645366591883083
-0.45397819443994836
-0.4998119369072166
-0.5025443683337444
-0.46230917458198445
-0.3653732043435117
-0.439267399080961
-0.5133036540746523
-0.44900283586320516
-0.4863301403500081
-0.33139109900288166
-0.3015675674952478
-0.24726083147491956
-0.3089306216277706
-0.2946898042742576
0.8555993634977315
-0.172655516315531
-0.15044590607482453
-0.12826139327735106
-0.1046329054812095
-0.06730638749894438
0.09493735491197863
0.017118128108041974
0.04249287450862392
0.11338377005454464
0.14288356364754476
0.1487724063538205
0.35239935317683174
0.23640973512342445
0.25868503265455506
0.337045053309524
0.3356237413270995
0.319669231897135
0.39481103054404726
0.5023530362321394
0.44184377953129134
0.479845351330459
0.5293015357354492
0.4498567496675111
0.5788313027879622
0.49262951394790844
0.5840005296933242
0.5078735480904039
0.3566565791311728
0.5248358288785437
0.45296917134845155
0.46015564770725104
0.4978374373569969
0.4604425441274817
0.4665630920167151
0.36695253594318805
0.38758517001839626
0.26319929394270175
0.3345852929940771
0.30928352315000723
0.18518516367631577
0.28668756960352537
0.1898759771003655
0.13365180646917268
0.08429841606051962
0.11855416749270624
0.125203567727282
0.015879158824935846
0.05209460024081203
-0.10693871698702054
-0.10116475058421813
-0.12718192730561492
-0.15468603024318167
-0.30011187643636716
-0.2731767683312471
-0.2122733662365063
-0.3159645425037248
-0.41497689094905216
-0.35797809678201375
-0.380290803495237
-0.4833599487939582
-0.3384098635213804
-0.48809754276750417
-0.4879161877699617
-0.5381353221832765
-0.49813339929786093
-0.5487962937228071
-0.5188343187715668
-0.4176330396858169
-0.48127844199028486
-0.46506706539976833
-0.5708529803110289
-0.48292945182550695
-0.47910986866337146
-0.3382060670849795
-0.4750290273589691
-0.4229239615023288
-0.409603469357291
-0.34956272430032276
-0.3233512303138776
-0.29281743433696317
-0.19853568147659192
-0.1928230188429876
-0.25759750569183254
-0.18235041431926452
-0.10771178393966836
-0.0222270886801193
-0.11326974637957188
0.024533736749019916
-0.0066623629979364034
