ecg
0.0
0.0062853290044481945
0.012545803018029603
0.018756665337583717
0.024893355446689164
0.03093160613888689
0.03684753948102499
0.042617761237243534
0.04821945338020477
0.05363046432373825
0.058829396520080506
0.06379569107531118
0.0685097090483781
0.07295280911221884
0.07710742126987247
0.0809571163340744
0.08448667089558178
0.08768212752331536
0.09053084995825966
0.09302157308286042
0.09514444746831767
0.09689107832361496
0.09825455869226278
0.09922949676548137
0.09981203720381464
0.09999987638285975
0.09979227150282433
0.0991900435258877
0.09819557392975067
0.09681279529021189
0.09504717573001116
0.0929056972954363
0.09039682834620162
0.0875304900677813
0.08431801723862226
0.08077211340738072
0.0769068006574317
0.07273736415730489
0.06828029171631891
0.5
1.0
0.5
0.047943716228880995
0.042333065605653454
0.03655501118252195
0.03063240196067838
0.02458865857538506
0.018447680680349254
0.012233752437845732
0.005971446488321035
-0.0003144732207735999
-0.006599149362662023
-0.012857729528186848
-0.019065464503306404
-0.025197806138512475
-0.031230504423148914
-0.03713970338075679
-0.042902035406232636
-0.048494713671748735
-0.0538956222360216
-0.05908340350059578
-0.06403754266730259
-0.06873844886291099
-0.0731675326101678
-0.07730727933887176
-0.08114131864628654
-0.08465448903300604
-0.08783289785827685
-0.09066397627768893
-0.0931365289459854
-0.09524077828844513
-0.09696840316576877
-0.09831257177957042
-0.09926796868835203
-0.09983081582712683
-0.0999988874475714
-0.09977151891962616
-0.09914960935973849
-0.09813561807535598
-0.09673355483972904
-0.09494896403548136
-0.09278890272965096
-0.09026191276690343
-0.0873779869912729
-0.08414852973000504
-0.08058631169576697
-0.0767054194855599
-0.07252119987603976
-0.06805019913552532
-0.06331009759268216
-0.0583196397206274
-0.053098560012932054
-0.0476675049446428
-0.04204795132692152
-0.03626212137816673
-0.030332894847462735
-0.024283718537858736
-0.018138513587265162
-0.011921580873617426
-0.005657504918379273
0.0006289433316067027
0.006912904459478348
0.013169528883562306
0.019374075123689678
0.02550200764003101
0.03152909385755018
0.03743149999240179
0.04318588530132969
0.04876949438136338
0.05416024715481898
0.05933682618376199
0.06427876096865386
0.06896650889782616
0.07338153252767271
0.07750637288796014
0.08132471852237326
0.08482146999128018
0.08798279958164291
0.09079620598795458
0.5
1.0
0.5
0.09836961261796101
0.09930545891403676
0.09984860718705224
0.09999690958677471
0.09974977965944998
0.09910819466690197
0.09807469172200399
0.09665335775580415
0.09484981335597958
0.09267119054052854
0.0901261045545945
0.08722461980194872
0.08397821004585404
0.0803997130366941
0.07650327974578901
0.07230431840615102
0.0678194335814667
0.06306636050425575
0.05806389494286068
0.05283181887460523
0.04739082225904436
0.041762421220646856
0.03596887296445369
0.03003308776117511
0.02397853834977361
0.01782916711579773
0.011609291412523107
0.0053435073993057716
-0.0009434072225895225
-0.007226591192058602
-0.013481198000658376
-0.019682494146770375
-0.025805956942884914
-0.031827371489230795
-0.03772292643027682
-0.04346930811543945
-0.049043792791641984
-0.05442433646315789
-0.05958966206338965
-0.06451934359386928
-0.06919388689775459
-0.07359480674841022
-0.07770469994822878
-0.08150731414862619
-0.08498761211906855
-0.08813183121098064
-0.09092753778138882
-0.09336367636108461
-0.09543061337287484
-0.09712017522703761
-0.09842568064333686
-0.09934196707178106
-0.09986541110764564
-0.09999394282002938
-0.09972705393728329
-0.09906579985694319
-0.09801279547221768
-0.09657220483153552
-0.09474972467204303
-0.09255256189216783
-0.08998940505233184
-0.08707039001651284
-0.08380705987052271
-0.08021231927550443
-0.07630038343715285
-0.0720867218924586
-0.06758799733626797
-0.06282199972956438
-0.057807575950037195
-0.052564555263132154
-0.04711367090830182
-0.04147647811054085
-0.03567526884142328
-0.02973298366671729
-0.023673121029168152
-0.017519644325187024
-0.011296887142907358
0.5
1.0
0.5
0.013792733797265144
0.0199907185224803
0.02610965104120872
0.032125334368414325
0.03801397981235951
0.04375230104569032
0.04931760618994738
0.05468788754936258
0.05984190863909257
0.06475928816373934
0.06942058061407211
0.0738073531632338
0.07790225855834905
0.0816891037192904
0.08515291377333105
0.0882799912724619
0.09105797035920354
0.09347586566671504
0.09552411575982865
0.09719462094522335
0.09848077530122078
0.09937749280054241
0.09988122742272693
0.0999899871766749
0.09970334197786904
0.09902242534911987
0.09794992993811166
0.09649009686947396
0.0946486989734853
0.09243301795773087
0.08985181561198682
0.08691529916019997
0.08363508089657767
0.08002413226540335
0.07609673256616688
0.07186841248685392
0.06735589268868677
0.06257701768518074
0.057550685276989116
0.05229677182158032
0.04683605363326624
0.04119012482439941
0.03538131191263397
0.029432585531928398
0.023367469596425414
0.01720994827641702
0.010984371154250244
0.004715356935230758
-0.0015723039057039632
-0.007853747156566879
-0.014104133192491729
-0.020298745202675984
-0.026413086931660536
-0.032422979548436884
-0.038304657260316614
-0.044034861293461826
-0.049590931868438895
-0.054950897807080595
-0.06009356341631205
-0.06499859230536446
-0.06964658780492203
-0.07401916967019426
-0.07809904676459169
-0.08187008543658279
-0.0853173733193391
-0.08842727830087764
-0.09118750243150328
-0.09358713055538115
-0.09561667347392505
-0.097268105470316
-0.09853489604676165
-0.09941203574899389
-0.09989605597588273
-0.09998504269583006
-0.09967864401570345
-0.09897807157237837
-0.09788609574138617
0.5
1.0
0.5
-0.0897133375942315
-0.08675934876676021
-0.0834622748247818
-0.07983515386744061
-0.07589232914680911
-0.07164939234827854
-0.06712312193409045
-0.062331416793821814
-0.057293225464202104
-0.05202847119815797
-0.04655797317939574
-0.04090336419407489
-0.03508700508513331
-0.029131896327554932
-0.023061587074244178
-0.01690008203218502
-0.01067174653713595
-0.004401210202238526
0.001886730478446403
0.008167210186320413
0.014415393106795633
0.020606571141169115
0.026716261613452044
0.032720304085777134
0.03859495589953256
0.04431698606441236
0.04986376712409895
0.05521336463530688
0.06034462390634252
0.06523725365217904
0.06987190623523648
0.07423025417456072
0.07829506262084615
0.08205025751070863
0.08548098913069252
0.08857369083965289
0.09131613271729831
0.09369746992674369
0.095708285599827
0.09734062807560022
0.09858804234473956
0.09944559557552775
0.09990989662046815
0.09997910942639263
0.0996529602950337
0.0989327389653494
0.0978212935133209
0.09632301908939131
0.09444384053808293
0.09219118896852255
0.08957397236852571
0.08660254037844403
0.0832886433640775
0.07964538595049303
0.07568717520049928
0.07142966364270217
0.066889687374434
0.062085199484324644
0.05703519905779039
0.051759656046188054
0.04627943229673007
0.040616199055447375
0.03479235126942847
0.028830919027222554
0.022755476487608565
0.016590048656871616
0.010359016383224158
0.004087019944071331
-0.0022011383926226363
-0.008480592447550853
-0.014726510462013752
-0.02091419329375643
-0.027019172088377966
-0.03301730504008348
-0.03888487285913861
-0.04459867256850751
-0.05013610925876025
0.5
1.0
0.5
-0.07009653367675961
-0.07444060458884182
-0.07849030418864039
-0.08222961815988072
-0.08564375958933441
-0.08871922744086028
-0.09144385994451648
-0.09380688268961652
-0.09579895123154886
-0.09741218804387353
-0.0986402136695714
-0.0994781719482585
-0.09992274921960793
-0.09997218742703888
-0.09962629106985546
-0.09888642797634359
-0.09775552389476871
-0.09623805092366344
-0.09434000982715823
-0.09206890630528641
-0.08943372131310282
-0.08644487554598657
-0.08311418823156941
-0.07945483039124461
-0.0754812727560801
-0.07120922854310274
-0.06665559131823737
-0.06183836819162167
-0.05677660860947088
-0.05149032902408163
-0.04600043373986143
-0.04032863224839841
-0.03449735337945929
-0.028529656607405175
-0.022449140863757405
-0.016279851216509527
-0.01004618378521719
-0.003772789267872061
0.0025155245389372957
0.00879389084110589
0.015037482181393492
0.021221608618250665
0.027321815360846175
0.033313979474205405
0.03917440527203944
0.044879918020045984
0.05040795557913228
0.05573665762616408
0.060844952099421624
0.06571263852691854
0.07032046790806815
0.07465021883280501
0.07868476953715886
0.08240816561033633
0.08580568308556868
0.08886388666523538
0.09157068285001677
0.09391536776197666
0.0958886694724649
0.09748278466745337
0.09869140950531598
0.0995097645450266
0.09993461364619807
0.099964276766223
0.09959863660391047
0.09883913906334733
0.0976887875361493
0.0961521310247126
0.09423524615343203
0.09194571313902071
0.08929258581495701
0.08628635582859327
0.08293891115250841
0.0792634890741686
0.07527462384979558
0.07098808922944318
0.0664208360805617
0.5
1.0
0.5
0.04572098026790807
0.040040666616780504
0.034202014332567275
0.028228112047397527
0.022142583232156225
0.015969492778755204
0.009733251836830473
0.003458521281181889
-0.0028298858083113504
-0.009107102268663679
-0.015348305189621278
-0.02152881407450874
-0.027624188437907204
-0.03361032445422143
-0.039463550274943957
-0.04516071963768911
-0.050679303396826914
-0.05599747861375927
-0.06109421485454208
-0.06594935735358942
-0.07054370671459519
-0.07485909483349874
-0.07887845674326288
-0.08258589809635411
-0.08596675801807437
-0.08900766708219049
-0.09169660017960125
-0.09402292407097584
-0.09597743943531878
-0.09755241724818378
-0.09874162934567884
-0.09954037305340124
-0.09994548978290693
-0.0999553775221764
-0.09956999717068382
-0.09879087269401787
-0.09762108509744305
-0.0960652602422322
-0.09412955055295041
-0.0918216106880275
-0.08915056726982847
-0.08612698279392332
-0.08276281386027336
-0.0790713638915096
-0.07506723052527264
-0.07076624788865063
-0.06618542398298696
-0.061342873426666306
-0.05625774582184409
-0.05095015002838767
-0.04544107464448805
-0.03975230500839157
-0.03390633704946775
-0.027926288329283185
-0.02183580662446502
-0.015658976412856195
-0.009420223632763005
-0.003144219091912387
0.0031442190919117874
0.009420223632762407
0.015658976412855605
0.02183580662446409
0.027926288329282612
0.03390633704946718
0.03975230500839102
0.04544107464448752
0.050950150028387146
0.05625774582184359
0.06134287342666583
0.06618542398298677
0.0707662478886502
0.07506723052527202
0.07907136389150923
0.08276281386027283
0.08612698279392302
0.0891505672698282
0.0918216106880274
0.5
1.0
0.5
0.09879087269401773
0.09956999717068377
0.09995537752217637
0.09994548978290693
0.0995403730534013
0.098741629345679
0.09755241724818392
0.09597743943531906
0.09402292407097593
0.0916966001796015
0.08900766708219092
0.08596675801807468
0.08258589809635465
0.07887845674326326
0.07485909483349938
0.07054370671459537
0.06594935735358988
0.06109421485454283
0.055997478613759755
0.050679303396827746
0.045160719637689646
0.03946355027494451
0.03361032445422166
0.027624188437907784
0.021528814074509673
0.015348305189621873
0.00910710226866463
0.0028298858083119502
-0.0034585212811812887
-0.009733251836830228
-0.01596949277875461
-0.022142583232155292
-0.028228112047396947
-0.03420201433256638
-0.040040666616780275
-0.04572098026790754
-0.05122049279531082
-0.05651745667653901
-0.06159092535671748
-0.06642083608056125
-0.0709880892294425
-0.07527462384979541
-0.07926348907416823
-0.08293891115250789
-0.08628635582859297
-0.08929258581495658
-0.09194571313902047
-0.0942352461534317
-0.09615213102471254
-0.09768878753614918
-0.09883913906334718
-0.09959863660391041
-0.09996427676622299
-0.0999346136461981
-0.09950976454502665
-0.09869140950531602
-0.09748278466745351
-0.09588866947246517
-0.09391536776197687
-0.09157068285001714
-0.08886388666523566
-0.08580568308556899
-0.08240816561033648
-0.07868476953715922
-0.07465021883280563
-0.07032046790806856
-0.06571263852691926
-0.06084495209942181
-0.05573665762616458
-0.05040795557913311
-0.04487991802004651
-0.039174405272040316
-0.03331397947420597
-0.02732181536084709
-0.021221608618250905
-0.015037482181394085
-0.00879389084110684
0.5
1.0
0.5
0.016279851216508934
0.02244914086375717
0.0285296566074046
0.0344973533794584
0.04032863224839786
0.046000433739860576
0.051490329024081107
0.05677660860947038
0.06183836819162147
0.06665559131823692
0.07120922854310206
0.07548127275607971
0.07945483039124401
0.08311418823156927
0.08644487554598626
0.0894337213131027
0.09206890630528618
0.0943400098271579
0.09623805092366328
0.0977555238947685
0.09888642797634356
0.0996262910698554
0.09997218742703885
0.09992274921960796
0.0994781719482586
0.0986402136695715
0.09741218804387375
0.09579895123154893
0.09380688268961673
0.09144385994451687
0.08871922744086055
0.08564375958933491
0.08222961815988107
0.07849030418864078
0.07444060458884198
0.07009653367676004
0.06547526984397405
0.060595087626355064
0.055475285438412215
0.05013610925876077
0.04459867256850805
0.03888487285913883
0.033017305040084044
0.02701917208837888
0.020914193293757016
0.014726510462014697
0.008480592447551097
0.002201138392623236
-0.004087019944070377
-0.010359016383223561
-0.016590048656870672
-0.02275547648760798
-0.02883091902722164
-0.03479235126942824
-0.040616199055446826
-0.04627943229672923
-0.05175965604618754
-0.0570351990577896
-0.06208519948432417
-0.06688968737443354
-0.07142966364270201
-0.07568717520049889
-0.07964538595049246
-0.08328864336407717
-0.08660254037844356
-0.08957397236852543
-0.09219118896852231
-0.09444384053808286
-0.09632301908939116
-0.0978212935133207
-0.09893273896534932
-0.09965296029503362
-0.09997910942639261
-0.09990989662046817
-0.09944559557552778
-0.09858804234473965
-0.09734062807560044
0.5
1.0
0.5
-0.08857369083965316
-0.08548098913069302
-0.08205025751070898
-0.07829506262084673
-0.07423025417456112
-0.06987190623523716
-0.06523725365217924
-0.060344623906343
-0.055213364635307675
-0.04986376712409947
-0.044316986064413214
-0.038594955899533115
-0.032720304085777696
-0.02671626161345228
-0.020606571141169705
-0.014415393106796579
-0.008167210186321012
-0.0018867304784473586
0.004401210202237926
0.010671746537135353
0.016900082032184776
0.023061587074243595
0.029131896327554016
0.035087005085132746
0.04090336419407402
0.04655797317939552
0.05202847119815745
0.05729322546420132
0.06233141679382135
0.06712312193408974
0.07164939234827811
0.07589232914680849
0.07983515386744047
0.08346227482478147
0.08675934876675973
0.08971333759423124
0.09231255991943098
0.09454673725938625
0.09640703468161492
0.09788609574138613
0.09897807157237828
0.09967864401570337
0.09998504269583004
0.09989605597588277
0.09941203574899396
0.09853489604676174
0.09726810547031606
0.09561667347392523
0.09358713055538148
0.09118750243150353
0.0884272783008781
0.08531737331933942
0.08187008543658314
0.07809904676459184
0.07401916967019466
0.06964658780492271
0.06499859230536492
0.06009356341631281
0.054950897807080804
0.049590931868439415
0.044034861293462686
0.03830465726031717
0.032422979548437786
0.02641308693166094
0.020298745202676743
0.014104133192492147
0.007853747156567477
0.0015723039057049188
-0.004715356935230158
-0.010984371154249294
-0.017209948276416604
-0.023367469596424658
-0.029432585531927992
-0.035381311912633405
-0.041190124824398544
-0.046836053633265706
-0.05229677182157966
0.5
1.0
0.5
-0.0718684124868535
-0.07609673256616625
-0.08002413226540299
-0.08363508089657724
-0.08691529916019976
-0.08985181561198648
-0.09243301795773079
-0.0946486989734851
-0.0964900968694737
-0.09794992993811158
-0.09902242534911976
-0.09970334197786901
-0.09998998717667489
-0.09988122742272697
-0.09937749280054248
-0.09848077530122094
-0.09719462094522345
-0.09552411575982889
-0.09347586566671519
-0.09105797035920378
-0.08827999127246236
-0.08515291377333135
-0.08168910371929096
-0.07790225855834931
-0.07380735316323432
-0.0694205806140724
-0.0647592881637398
-0.05984190863909333
-0.05468788754936308
-0.04931760618994806
-0.0437523010456907
-0.03801397981236023
-0.032125334368414554
-0.026109651041209297
-0.01999071852248124
-0.01379273379726574
-0.007540206458240845
-0.0012578617838743837
0.00502945703633604
0.01129688714290641
0.017519644325186434
0.023673121029167226
0.029732983666716884
0.03567526884142255
0.04147647811054047
0.04711367090830129
0.05256455526313134
0.05780757595003671
0.06282199972956365
0.06758799733626766
0.07208672189245806
0.07630038343715258
0.08021231927550405
0.0838070598705222
0.08707039001651255
0.0899894050523315
0.09255256189216768
0.09474972467204279
0.0965722048315354
0.09801279547221756
0.09906579985694307
0.09972705393728325
0.09999394282002937
0.09986541110764567
0.09934196707178114
0.0984256806433369
0.09712017522703775
0.09543061337287513
0.09336367636108477
0.09092753778138914
0.08813183121098084
0.08498761211906897
0.08150731414862675
0.07770469994822915
0.07359480674841087
0.0691938868977549
0.06451934359386986
0.5
1.0
0.5
0.04346930811543998
0.037722926430277706
0.0318273714892312
0.025805956942885663
0.019682494146770788
0.013481198000658973
0.007226591192059553
0.0009434072225901227
-0.005343507399304995
-0.011609291412522685
-0.017829167115796962
-0.02397853834977337
-0.03003308776117454
-0.035968872964452794
-0.04176242122064631
-0.047390822259043675
-0.05283181887460488
-0.05806389494286005
-0.063066360504255
-0.06781943358146626
-0.07230431840615037
-0.07650327974578874
-0.08039971303669363
-0.08397821004585382
-0.08722461980194834
-0.09012610455459408
-0.09267119054052832
-0.09484981335597926
-0.09665335775580404
-0.09807469172200384
-0.09910819466690193
-0.09974977965944994
-0.0999969095867747
-0.09984860718705228
-0.09930545891403686
-0.09836961261796108
-0.09704476905197987
-0.09533616723774302
-0.09325056374797096
-0.09079620598795499
-0.08798279958164316
-0.08482146999128064
-0.08132471852237351
-0.07750637288796058
-0.07338153252767293
-0.06896650889782659
-0.06427876096865458
-0.059336826183762396
-0.05416024715481963
-0.04876949438136375
-0.043185885301330315
-0.03743149999240276
-0.031529093857550754
-0.02550200764003185
-0.01937407512369018
-0.013169528883563078
-0.0069129044594787685
-0.0006289433316073917
0.0056575049183783185
0.011921580873616831
0.018138513587264312
0.024283718537858327
0.030332894847461996
0.036262121378166416
0.04204795132692089
0.047667504944641954
0.05309856001293162
0.0583196397206267
0.06331009759268184
0.06805019913552474
0.07252119987603954
0.0767054194855595
0.0805863116957664
0.08414852973000476
0.08737798699127247
0.09026191276690325
0.09278890272965068
0.5
1.0
0.5
0.09914960935973843
0.0997715189196261
0.0999988874475714
0.09983081582712687
0.09926796868835214
0.09831257177957053
0.09696840316576898
0.09524077828844528
0.09313652894598569
0.09066397627768907
0.08783289785827718
0.08465448903300656
0.08114131864628689
0.0773072793388723
0.07316753261016812
0.06873844886291156
0.06403754266730284
0.0590834035005963
0.053895622236022414
0.048494713671749214
0.04290203540623337
0.037139703380757186
0.03123050442314961
0.0251978061385128
0.01906546450330704
0.012857729528187754
0.006599149362662534
0.0003144732207744221
-0.005971446488320612
-0.012233752437845047
-0.018447680680348272
-0.024588658575384476
-0.030632401960677513
-0.03655501118252147
-0.04233306560565275
-0.04794371622888066
-0.05336477604021167
-0.05857480775418316
-0.06355320858443798
-0.06828029171631828
-0.07273736415730457
-0.0769068006574312
-0.0807721134073805
-0.0843180172386219
-0.08753049006778085
-0.09039682834620139
-0.09290569729543596
-0.09504717573001104
-0.0968127952902117
-0.0981955739297506
-0.09919004352588762
-0.09979227150282427
-0.09999987638285975
-0.09981203720381468
-0.09922949676548143
-0.0982545586922629
-0.09689107832361504
-0.09514444746831785
-0.09302157308286077
-0.09053084995825988
-0.08768212752331574
-0.084486670895582
-0.08095711633407482
-0.0771074212698731
-0.07295280911221924
-0.06850970904837873
-0.06379569107531156
-0.05882939652008115
-0.05363046432373856
-0.04821945338020536
-0.042617761237244416
-0.03684753948102552
-0.03093160613888772
-0.024893355446689608
-0.018756665337584463
-0.012545803018029954
-0.006285329004448848
-2.4492935982947064e-16
