ecg
0.08121726818316209
0.044674354384502894
0.12240073350808257
0.16531705908803004
0.32740238732650256
0.22774695804990636
0.4809443042157654
0.3975517114535715
0.48354588721210345
0.4764520412817171
0.5722113579727928
0.39491100135827306
0.46926299669430777
0.4425863248986691
0.4843597305454552
0.32881339638999096
0.3225772666072923
0.22714931779770972
0.20682014082018213
0.16285263350946338
0.004636387860729667
0.04149934263268766
-0.045702894734927044
-0.13863460649409062
-0.18796177004279405
-0.33112663710247586
-0.3602539370244588
-0.44999784723353553
-0.456515637425435
-0.44641773885705277
-0.5265558595698296
-0.5196370284322925
-0.5305953912742295
-0.5236264988777503
-0.4890889011116362
-0.41993993722827033
-0.42939742929922375
-0.30752451183990326
-0.17469380363187198
-0.15314837477048748
-0.1280737152950176
-0.08839484588563473
-0.00589982163609902
0.19083546580116217
0.18108745448088753
0.21496299263050603
0.31900003688415574
0.47005685023401456
0.4183234673548688
0.48105150437111077
0.4928170053420129
0.4769251260561169
0.44287161280054604
0.47659664918241335
0.46642690894215333
0.4781439528550726
0.4524758616708906
0.40944085830757887
0.32125496226182704
0.2883273213962348
1.137883307494187
0.16577801384626342
0.053962329500728295
-0.06205281511425434
-0.09711189375808893
-0.19693648441809225
-0.20379496148089216
-0.24567082119099432
-0.26633829106402535
-0.4908379426932165
-0.5290210877532258
-0.507431328674794
-0.4886105544762956
-0.45589183054617194
-0.475619529638427
-0.5730145825286145
-0.4569644917336717
-0.35994117695955963
-0.34037529873337
-0.25630117306410016
-0.24133118683587554
-0.17081973534874864
-0.07835701522169365
0.007912359500342992
0.07270652345564405
0.14269287439831885
0.17404422822714766
0.29256028511533533
0.3396414102180634
0.44229204898398655
0.48923947015810754
0.4722446367450827
0.4673655440002008
0.4662586145334995
0.5200826260165196
0.4921188728933155
0.449277157995794
0.4362380237487585
0.36075542203883815
0.3754272622366443
0.2591797353995837
0.27735657583976725
0.16597573254774128
0.10182760787625765
-0.05789345992216934
-0.06990356362427588
-0.11478377092274358
-0.2694761408185309
-0.3000275113337594
-0.34347780952079143
-0.4642922286795968
-0.4213906962738265
-0.42639145679599877
-0.5325456684913716
-0.48175693209361786
-0.5632353735063911
-0.48655345874620154
-0.5413615833460911
-0.3699611038157209
-0.36133782615465154
-0.3300647274804875
-0.30714971933350255
-0.13814565391711658
-0.03232091618256758
-0.14943988420053195
0.08069104062502569
0.17525871610173455
0.18363090892970366
0.17582171816351372
0.3426342523609588
0.3472787651712063
0.3748668286824594
0.38306770515019267
0.5014746318579575
0.5321652100955583
0.4687020807083509
0.5218702522662707
0.4232882488405355
0.4943127876916646
0.4199120336432161
0.36210346818574185
0.31172898400076765
0.2984254882379778
0.22485630792433214
0.1418946442564466
0.04776193795878035
-0.03070804433319999
-0.07836764239529938
-0.169859123969094
-0.21541793355419067
0.6725734977597936
-0.4889298516488785
-0.36214677557503744
-0.3422030780384587
-0.4566581971591459
-0.4999996112956709
-0.5067999416569668
-0.49952307856819694
-0.475045379856948
-0.5035173846965446
-0.43457631320637863
-0.4105643728724099
-0.2920448037860161
-0.2561501348911792
-0.14789181581984454
-0.10878754649364854
0.024144297828546615
0.060957775306775056
0.23412383358711192
0.10123951245324303
0.23071279435075476
0.36913962227701186
0.5041036080427048
0.41027111810892547
0.4602695434090078
0.4717150290030887
0.5635412311937112
0.4852160014830311
0.5248137464984676
0.4548647466096043
0.37654190529031484
0.4151319209027481
0.37479593857168714
0.35651284503637715
0.22189351563534898
0.1269298643224194
0.11272231806336219
0.02147995843815612
-0.05187998547331736
-0.14342322656379833
-0.15242007542336813
-0.2578364692376316
-0.2406558601083118
-0.3322596199560519
-0.3979463883222582
-0.5455381548823783
-0.45674049353092044
-0.47743837599808453
-0.45814249681511
-0.43534172147998035
-0.4853711714152103
-0.3912868197700419
-0.41790695613434564
-0.24047002711663845
-0.34552674558584046
-0.30132275230124966
-0.22532326401348257
-0.11356010783608306
-0.049660159428759426
0.17928403423990874
0.13848287362310674
0.157474150729304
0.3450089505536364
0.3180533049208802
0.3357106587924388
0.48245989451626786
0.50095457708066
0.46845194377413535
0.5698197109781866
0.5037597239913463
0.5646817809402578
0.4844756771086408
0.5023161105656672
0.3852127485655631
0.2654688286578939
0.3881988323571414
0.17166073895962777
0.11769306176015841
0.01839206889997278
-0.03219780934073997
-0.08483273313031378
-0.15960320718334534
-0.2055053119363498
-0.21237394849925528
-0.36454923986148846
-0.4685563260509001
-0.5051182754474078
-0.5082289421209045
-0.5767671799483123
-0.45868657754676934
0.4796628607674961
-0.49517462312240235
-0.4529894480080797
-0.485675099763151
-0.4123830974056727
-0.28063912469534813
-0.22134138514241702
-0.20657204023249207
-0.021829497774719986
-0.1030250831407945
0.02048937650515719
0.10081425632421445
0.04475919369012851
0.3491447823625344
0.3326913017067485
0.3170878102714776
0.5184027506762507
0.48217797387479805
0.5011016812083566
0.46507654114094704
0.5052492049704795
0.41677337375589796
0.514692520932192
0.42728045317976737
0.41360269910631076
0.41862875438204944
0.31621926449049054
0.25167969858944916
0.1835196813681561
0.06030262498964279
0.06382832286423051
0.023755961394190138
-0.08969467189970526
-0.15470400663550737
-0.30959447584997674
-0.36984540965049073
-0.4517864149588827
-0.3627631799932498
-0.4720476263890134
-0.41384210387334314
-0.5364002291401498
-0.5213181601075544
-0.4854285235623341
-0.42371396481878343
-0.4356304383438299
-0.3869970898691259
-0.3465531234966801
-0.28043041570085
-0.28043144109241913
-0.1507614934783534
-0.09080903873030143
-0.009136834543522585
0.09364915642475634
0.10875329367183184
0.20906292291107764
0.26406106812130015
0.3590790311158283
0.42903021713416967
0.3847158375738771
0.4946227833808935
0.5908529922262843
0.4251322341636564
0.4569438914146821
0.4428275775534945
0.4502113517744021
0.5120413324249695
0.388480088701438
0.30115411576100326
0.3074012802716976
0.1804467773695156
0.1959381994775326
0.08117659134165484
0.05999586599224539
-0.11765147539005685
-0.006255111889434534
-0.18618663570453745
-0.25912254328042783
-0.35219612028030045
-0.435734390836297
-0.4835582769337926
-0.47765369285956566
-0.5306737437792185
-0.48544760904441087
-0.5382732471566978
-0.4519766060868199
-0.4102800085438541
-0.45799488236481534
-0.31805301931465113
-0.33596237448218924
-0.20529423445909017
0.8258507587667612
-0.06847243105577548
-0.10013207001649031
0.01983276222355277
0.17262385153606707
0.14175053963465892
0.13945801598859348
0.20735530278158068
0.2353909988560914
0.30301339421452306
0.4268344900997754
0.5398422544140333
0.471458905203797
0.5161540721422367
0.4894922751233158
0.4791538666093772
0.44314211839993783
0.40537898845261044
0.3902461684423734
0.2531215299922402
0.30005186276415396
0.2274847485904221
0.09953378845143024
0.07486877194045115
-0.07594409877176667
-0.1422825292325749
-0.1795225334175779
-0.26449223164192165
-0.33925317926080356
-0.4050543587204381
-0.4454584048113092
-0.40726129888827156
-0.5776714886051094
-0.47821671719413544
-0.51170046478299
-0.45613419179960896
-0.4481940763771795
-0.5836973353161867
-0.37583052954825497
-0.34011106810269504
-0.2983738446524326
-0.2592188105941673
-0.1240662630032035
-0.114527643929844
0.0728530422300982
0.0847599337529068
0.23756740701727358
0.16255675057904065
0.18059535636340074
0.3645733595609869
0.4244180561377552
0.4277999940802403
0.38363330332369433
0.46222392404709184
0.5285204796405358
0.490075414744136
0.48377061217615314
0.4599265407421646
0.39045293309461765
0.3689853463630799
0.27378076582943506
0.37511458344913373
0.19802246697123793
0.17569210256843656
0.02727838804514527
0.0428742796151755
-0.16580673059616793
-0.09977039455544952
-0.21789958684342653
-0.17600591095884469
-0.40585236417523063
-0.38793644022826296
-0.4156965902128504
-0.4048248821555347
-0.509394717545426
-0.49458468798709965
-0.6053184713600798
-0.5276382347058436
-0.4404060183431253
-0.3740848598478727
-0.3999046670416733
-0.23073257050857798
-0.18566963447683443
-0.21060996713033778
-0.25741759216664184
-0.15166985623960993
-0.02630271847130406
0.14347714016731486
0.17629544629143407
0.12550238889421567
1.2829634406361943
0.4325481042297421
0.38259967472478584
0.40415581023846786
0.5746357268633182
0.49407175384042457
0.4757424216626791
0.5141207658901016
0.4830662718461775
0.43535828356999434
0.4814359423464081
0.4314021515299093
0.36370473991916263
0.25523206997478565
0.25050291758701415
0.11905267212703229
0.07048033672056471
0.023368504917153102
-0.06269238807131436
-0.08611547038370383
-0.22150606238068624
-0.39117859529252763
-0.42089425949151504
-0.3430213500430742
-0.4653769517925927
-0.4575446633542361
-0.5366365681295975
-0.449953451517638
-0.5137792308224328
-0.40490307741374476
-0.4768030499306513
-0.35640884989490695
-0.3313242881690306
-0.3455738579214932
-0.19186295832161948
-0.2236287912658857
-0.14733609519498886
0.0046274715541885295
0.01274629760808852
0.08878978431420476
0.17305554733883372
0.20767545299373733
0.3714950172144492
0.4039576467917029
0.4158402724478008
0.4501069912111146
0.5038739924411723
0.5845035112942024
0.5433478422161058
0.46654996526979453
0.5118064724564063
0.4371826748389787
0.3932594663303999
0.4474329945061386
0.27599334925985547
0.2090453217496484
0.06615405907692168
0.020665973491910544
0.03829298979602533
-0.09441339178064063
-0.10794118273450476
-0.2604530061026925
-0.3094077300103636
-0.29747014163701135
-0.31076334073253525
-0.39804761835748254
-0.4018975005460268
-0.4001541483263621
-0.4459135791754506
-0.5450279630355457
-0.4941877956809649
-0.43608414887500385
-0.45635440156274043
-0.37110641413887946
-0.4217817071636492
-0.32556340480309054
-0.19252150291658315
-0.2606636466768839
-0.13064780018123412
-0.0008859158955085826
